# Individual Target Curve for tw-L (Helix 96kHz config)
# Crossovers: HPF=3500 (lr4), LPF=None (None)
# Gain Offset: -1.5 dB | Stereo Summation Correction: Yes
# Format: Frequency (Hz) Magnitude (dB)
20.00 -177.23
20.71 -176.02
21.44 -174.81
22.20 -173.61
22.98 -172.40
23.79 -171.20
24.63 -169.99
25.50 -168.78
26.40 -167.58
27.33 -166.37
28.30 -165.17
29.30 -163.96
30.33 -162.75
31.41 -161.55
32.52 -160.34
33.66 -159.14
34.85 -157.93
36.08 -156.80
37.36 -155.68
38.68 -154.57
40.04 -153.46
41.46 -152.35
42.92 -151.25
44.44 -150.15
46.01 -149.05
47.63 -147.96
49.32 -146.87
51.06 -145.78
52.86 -144.70
54.73 -143.62
56.66 -142.55
58.66 -141.48
60.74 -140.41
62.88 -139.35
65.10 -138.29
67.40 -137.24
69.78 -136.19
72.25 -135.15
74.80 -134.11
77.44 -133.08
80.18 -132.04
83.01 -130.98
85.94 -129.92
88.98 -128.86
92.12 -127.81
95.37 -126.77
98.74 -125.73
102.23 -124.69
105.84 -123.66
109.58 -122.64
113.45 -121.62
117.46 -120.61
121.60 -119.60
125.90 -118.59
130.35 -117.59
134.95 -116.59
139.72 -115.60
144.65 -114.61
149.76 -113.62
155.05 -112.63
160.53 -111.64
166.20 -110.65
172.07 -109.65
178.15 -108.65
184.44 -107.64
190.95 -106.60
197.70 -105.53
204.68 -104.31
211.91 -103.07
219.40 -101.82
227.15 -100.57
235.17 -99.33
243.48 -98.08
252.08 -96.83
260.98 -95.59
270.20 -94.34
279.74 -93.09
289.62 -91.85
299.85 -90.60
310.45 -89.35
321.41 -88.11
332.76 -86.86
344.52 -85.62
356.69 -84.37
369.28 -83.12
382.33 -81.88
395.83 -80.63
409.81 -79.39
424.29 -78.15
439.28 -76.90
454.79 -75.66
470.86 -74.42
487.49 -73.18
504.71 -71.94
522.54 -70.70
540.99 -69.46
560.10 -68.22
579.88 -66.99
600.37 -65.76
621.57 -64.53
643.53 -63.30
666.26 -62.07
689.79 -60.84
714.16 -59.62
739.38 -58.40
765.50 -57.19
792.54 -55.97
820.53 -54.76
849.51 -53.56
879.52 -52.36
910.59 -51.16
942.75 -49.96
976.05 -48.78
1010.53 -47.61
1046.22 -46.49
1083.17 -45.38
1121.43 -44.28
1161.05 -43.17
1202.06 -42.07
1244.51 -40.98
1288.47 -39.89
1333.98 -38.81
1381.10 -37.73
1429.89 -36.65
1480.39 -35.58
1532.68 -34.51
1586.82 -33.45
1642.87 -32.39
1700.90 -31.33
1760.98 -30.28
1823.18 -29.24
1887.58 -28.20
1954.25 -27.17
2023.28 -26.15
2094.74 -25.14
2168.73 -24.14
2245.34 -23.14
2324.64 -22.17
2406.76 -21.21
2491.77 -20.26
2579.78 -19.34
2670.90 -18.44
2765.24 -17.56
2862.92 -16.71
2964.04 -15.89
3068.74 -15.10
3177.13 -14.34
3289.35 -13.62
3405.54 -12.93
3525.83 -12.28
3650.37 -11.67
3779.30 -11.10
3912.80 -10.57
4051.00 -10.07
4194.09 -9.61
4342.24 -9.18
4495.61 -8.79
4654.40 -8.44
4818.81 -8.11
4989.02 -7.82
5165.24 -7.55
5347.68 -7.31
5536.57 -7.09
5732.14 -6.90
5934.60 -6.72
6144.23 -6.57
6361.25 -6.43
6585.94 -6.31
6818.57 -6.21
7059.41 -6.11
7308.77 -6.03
7566.93 -5.97
7834.20 -5.91
8110.92 -5.86
8397.41 -5.82
8694.03 -5.78
9001.12 -5.76
9319.05 -5.73
9648.22 -5.72
9989.01 -5.71
10341.84 -5.70
10707.13 -5.70
11085.33 -5.70
11476.88 -5.71
11882.27 -5.71
12301.97 -5.72
12736.50 -5.73
13186.38 -5.75
13652.14 -5.76
14134.36 -5.78
14633.61 -5.79
15150.50 -5.81
15685.64 -5.83
16239.69 -5.85
16813.31 -5.87
17407.18 -5.90
18022.04 -5.92
18658.61 -5.94
19317.66 -5.96
20000.00 -5.99
