# Individual Target Curve for tw-R (Helix 96kHz config)
# Crossovers: HPF=3500 (lr4), LPF=None (None)
# Gain Offset: 0.0 dB | Stereo Summation Correction: Yes
# Format: Frequency (Hz) Magnitude (dB)
20.00 -175.73
20.71 -174.52
21.44 -173.31
22.20 -172.11
22.98 -170.90
23.79 -169.70
24.63 -168.49
25.50 -167.28
26.40 -166.08
27.33 -164.87
28.30 -163.67
29.30 -162.46
30.33 -161.25
31.41 -160.05
32.52 -158.84
33.66 -157.64
34.85 -156.43
36.08 -155.30
37.36 -154.18
38.68 -153.07
40.04 -151.96
41.46 -150.85
42.92 -149.75
44.44 -148.65
46.01 -147.55
47.63 -146.46
49.32 -145.37
51.06 -144.28
52.86 -143.20
54.73 -142.12
56.66 -141.05
58.66 -139.98
60.74 -138.91
62.88 -137.85
65.10 -136.79
67.40 -135.74
69.78 -134.69
72.25 -133.65
74.80 -132.61
77.44 -131.58
80.18 -130.54
83.01 -129.48
85.94 -128.42
88.98 -127.36
92.12 -126.31
95.37 -125.27
98.74 -124.23
102.23 -123.19
105.84 -122.16
109.58 -121.14
113.45 -120.12
117.46 -119.11
121.60 -118.10
125.90 -117.09
130.35 -116.09
134.95 -115.09
139.72 -114.10
144.65 -113.11
149.76 -112.12
155.05 -111.13
160.53 -110.14
166.20 -109.15
172.07 -108.15
178.15 -107.15
184.44 -106.14
190.95 -105.10
197.70 -104.03
204.68 -102.81
211.91 -101.57
219.40 -100.32
227.15 -99.07
235.17 -97.83
243.48 -96.58
252.08 -95.33
260.98 -94.09
270.20 -92.84
279.74 -91.59
289.62 -90.35
299.85 -89.10
310.45 -87.85
321.41 -86.61
332.76 -85.36
344.52 -84.12
356.69 -82.87
369.28 -81.62
382.33 -80.38
395.83 -79.13
409.81 -77.89
424.29 -76.65
439.28 -75.40
454.79 -74.16
470.86 -72.92
487.49 -71.68
504.71 -70.44
522.54 -69.20
540.99 -67.96
560.10 -66.72
579.88 -65.49
600.37 -64.26
621.57 -63.03
643.53 -61.80
666.26 -60.57
689.79 -59.34
714.16 -58.12
739.38 -56.90
765.50 -55.69
792.54 -54.47
820.53 -53.26
849.51 -52.06
879.52 -50.86
910.59 -49.66
942.75 -48.46
976.05 -47.28
1010.53 -46.11
1046.22 -44.99
1083.17 -43.88
1121.43 -42.78
1161.05 -41.67
1202.06 -40.57
1244.51 -39.48
1288.47 -38.39
1333.98 -37.31
1381.10 -36.23
1429.89 -35.15
1480.39 -34.08
1532.68 -33.01
1586.82 -31.95
1642.87 -30.89
1700.90 -29.83
1760.98 -28.78
1823.18 -27.74
1887.58 -26.70
1954.25 -25.67
2023.28 -24.65
2094.74 -23.64
2168.73 -22.64
2245.34 -21.64
2324.64 -20.67
2406.76 -19.71
2491.77 -18.76
2579.78 -17.84
2670.90 -16.94
2765.24 -16.06
2862.92 -15.21
2964.04 -14.39
3068.74 -13.60
3177.13 -12.84
3289.35 -12.12
3405.54 -11.43
3525.83 -10.78
3650.37 -10.17
3779.30 -9.60
3912.80 -9.07
4051.00 -8.57
4194.09 -8.11
4342.24 -7.68
4495.61 -7.29
4654.40 -6.94
4818.81 -6.61
4989.02 -6.32
5165.24 -6.05
5347.68 -5.81
5536.57 -5.59
5732.14 -5.40
5934.60 -5.22
6144.23 -5.07
6361.25 -4.93
6585.94 -4.81
6818.57 -4.71
7059.41 -4.61
7308.77 -4.53
7566.93 -4.47
7834.20 -4.41
8110.92 -4.36
8397.41 -4.32
8694.03 -4.28
9001.12 -4.26
9319.05 -4.23
9648.22 -4.22
9989.01 -4.21
10341.84 -4.20
10707.13 -4.20
11085.33 -4.20
11476.88 -4.21
11882.27 -4.21
12301.97 -4.22
12736.50 -4.23
13186.38 -4.25
13652.14 -4.26
14134.36 -4.28
14633.61 -4.29
15150.50 -4.31
15685.64 -4.33
16239.69 -4.35
16813.31 -4.37
17407.18 -4.40
18022.04 -4.42
18658.61 -4.44
19317.66 -4.46
20000.00 -4.49
