# Individual Target Curve for m-L (Helix 96kHz config)
# Crossovers: HPF=300 (lr4), LPF=3500 (lr4)
# Gain Offset: -2.0 dB | Stereo Summation Correction: Yes
# Format: Frequency (Hz) Magnitude (dB)
20.00 -92.15
20.71 -90.94
21.44 -89.73
22.20 -88.53
22.98 -87.32
23.79 -86.12
24.63 -84.91
25.50 -83.70
26.40 -82.50
27.33 -81.29
28.30 -80.09
29.30 -78.88
30.33 -77.67
31.41 -76.47
32.52 -75.26
33.66 -74.06
34.85 -72.85
36.08 -71.72
37.36 -70.61
38.68 -69.49
40.04 -68.38
41.46 -67.28
42.92 -66.17
44.44 -65.07
46.01 -63.98
47.63 -62.89
49.32 -61.80
51.06 -60.71
52.86 -59.63
54.73 -58.55
56.66 -57.48
58.66 -56.41
60.74 -55.35
62.88 -54.29
65.10 -53.23
67.40 -52.18
69.78 -51.14
72.25 -50.10
74.80 -49.06
77.44 -48.03
80.18 -47.01
83.01 -45.95
85.94 -44.90
88.98 -43.85
92.12 -42.81
95.37 -41.78
98.74 -40.75
102.23 -39.73
105.84 -38.72
109.58 -37.71
113.45 -36.72
117.46 -35.73
121.60 -34.75
125.90 -33.78
130.35 -32.82
134.95 -31.86
139.72 -30.92
144.65 -29.99
149.76 -29.06
155.05 -28.15
160.53 -27.25
166.20 -26.35
172.07 -25.47
178.15 -24.59
184.44 -23.72
190.95 -22.85
197.70 -21.95
204.68 -20.94
211.91 -19.92
219.40 -18.93
227.15 -17.97
235.17 -17.03
243.48 -16.14
252.08 -15.27
260.98 -14.45
270.20 -13.66
279.74 -12.91
289.62 -12.20
299.85 -11.54
310.45 -10.92
321.41 -10.34
332.76 -9.80
344.52 -9.30
356.69 -8.84
369.28 -8.41
382.33 -8.03
395.83 -7.67
409.81 -7.35
424.29 -7.06
439.28 -6.79
454.79 -6.55
470.86 -6.34
487.49 -6.14
504.71 -5.97
522.54 -5.81
540.99 -5.67
560.10 -5.54
579.88 -5.42
600.37 -5.32
621.57 -5.23
643.53 -5.15
666.26 -5.08
689.79 -5.02
714.16 -4.96
739.38 -4.91
765.50 -4.87
792.54 -4.84
820.53 -4.82
849.51 -4.80
879.52 -4.79
910.59 -4.78
942.75 -4.78
976.05 -4.78
1010.53 -4.81
1046.22 -4.90
1083.17 -4.98
1121.43 -5.08
1161.05 -5.17
1202.06 -5.28
1244.51 -5.38
1288.47 -5.50
1333.98 -5.62
1381.10 -5.74
1429.89 -5.86
1480.39 -6.00
1532.68 -6.13
1586.82 -6.27
1642.87 -6.42
1700.90 -6.57
1760.98 -6.72
1823.18 -6.89
1887.58 -7.05
1954.25 -7.23
2023.28 -7.41
2094.74 -7.61
2168.73 -7.81
2245.34 -8.02
2324.64 -8.25
2406.76 -8.50
2491.77 -8.76
2579.78 -9.04
2670.90 -9.35
2765.24 -9.68
2862.92 -10.03
2964.04 -10.42
3068.74 -10.83
3177.13 -11.28
3289.35 -11.76
3405.54 -12.28
3525.83 -12.84
3650.37 -13.44
3779.30 -14.07
3912.80 -14.74
4051.00 -15.45
4194.09 -16.19
4342.24 -16.98
4495.61 -17.79
4654.40 -18.64
4818.81 -19.52
4989.02 -20.43
5165.24 -21.37
5347.68 -22.34
5536.57 -23.33
5732.14 -24.34
5934.60 -25.37
6144.23 -26.42
6361.25 -27.49
6585.94 -28.58
6818.57 -29.68
7059.41 -30.79
7308.77 -31.92
7566.93 -33.05
7834.20 -34.20
8110.92 -35.36
8397.41 -36.52
8694.03 -37.69
9001.12 -38.87
9319.05 -40.06
9648.22 -41.25
9989.01 -42.45
10341.84 -43.65
10707.13 -44.85
11085.33 -46.06
11476.88 -47.27
11882.27 -48.48
12301.97 -49.69
12736.50 -50.91
13186.38 -52.13
13652.14 -53.35
14134.36 -54.57
14633.61 -55.80
15150.50 -57.02
15685.64 -58.25
16239.69 -59.47
16813.31 -60.70
17407.18 -61.93
18022.04 -63.16
18658.61 -64.39
19317.66 -65.61
20000.00 -66.84
