# Individual Target Curve for w-L (Helix 96kHz config)
# Crossovers: HPF=60 (lr4), LPF=300 (lr4)
# Gain Offset: -1.5 dB | Stereo Summation Correction: Yes
# Format: Frequency (Hz) Magnitude (dB)
20.00 -36.06
20.71 -34.87
21.44 -33.68
22.20 -32.50
22.98 -31.31
23.79 -30.13
24.63 -28.96
25.50 -27.79
26.40 -26.62
27.33 -25.46
28.30 -24.31
29.30 -23.17
30.33 -22.03
31.41 -20.90
32.52 -19.79
33.66 -18.68
34.85 -17.59
36.08 -16.60
37.36 -15.63
38.68 -14.68
40.04 -13.76
41.46 -12.87
42.92 -12.00
44.44 -11.17
46.01 -10.36
47.63 -9.60
49.32 -8.87
51.06 -8.18
52.86 -7.53
54.73 -6.93
56.66 -6.37
58.66 -5.86
60.74 -5.39
62.88 -4.97
65.10 -4.59
67.40 -4.26
69.78 -3.98
72.25 -3.74
74.80 -3.54
77.44 -3.38
80.18 -3.26
83.01 -3.13
85.94 -3.04
88.98 -2.98
92.12 -2.95
95.37 -2.95
98.74 -2.97
102.23 -3.03
105.84 -3.10
109.58 -3.19
113.45 -3.31
117.46 -3.45
121.60 -3.60
125.90 -3.77
130.35 -3.96
134.95 -4.16
139.72 -4.38
144.65 -4.62
149.76 -4.87
155.05 -5.13
160.53 -5.41
166.20 -5.70
172.07 -6.00
178.15 -6.32
184.44 -6.64
190.95 -6.95
197.70 -7.25
204.68 -7.44
211.91 -7.62
219.40 -7.83
227.15 -8.06
235.17 -8.33
243.48 -8.63
252.08 -8.97
260.98 -9.35
270.20 -9.76
279.74 -10.22
289.62 -10.71
299.85 -11.25
310.45 -11.83
321.41 -12.46
332.76 -13.12
344.52 -13.83
356.69 -14.57
369.28 -15.35
382.33 -16.17
395.83 -17.02
409.81 -17.90
424.29 -18.82
439.28 -19.76
454.79 -20.72
470.86 -21.71
487.49 -22.72
504.71 -23.75
522.54 -24.80
540.99 -25.86
560.10 -26.93
579.88 -28.02
600.37 -29.13
621.57 -30.24
643.53 -31.36
666.26 -32.50
689.79 -33.64
714.16 -34.79
739.38 -35.94
765.50 -37.11
792.54 -38.28
820.53 -39.45
849.51 -40.64
879.52 -41.82
910.59 -43.02
942.75 -44.22
976.05 -45.42
1010.53 -46.65
1046.22 -47.93
1083.17 -49.21
1121.43 -50.50
1161.05 -51.79
1202.06 -53.08
1244.51 -54.38
1288.47 -55.68
1333.98 -56.98
1381.10 -58.28
1429.89 -59.58
1480.39 -60.88
1532.68 -62.19
1586.82 -63.49
1642.87 -64.79
1700.90 -66.08
1760.98 -67.38
1823.18 -68.67
1887.58 -69.95
1954.25 -71.23
2023.28 -72.51
2094.74 -73.78
2168.73 -75.04
2245.34 -76.30
2324.64 -77.55
2406.76 -78.79
2491.77 -80.03
2579.78 -81.25
2670.90 -82.47
2765.24 -83.69
2862.92 -84.89
2964.04 -86.09
3068.74 -87.29
3177.13 -88.47
3289.35 -89.65
3405.54 -90.83
3525.83 -92.00
3650.37 -93.17
3779.30 -94.33
3912.80 -95.50
4051.00 -96.66
4194.09 -97.81
4342.24 -98.97
4495.61 -100.13
4654.40 -101.29
4818.81 -102.45
4989.02 -103.60
5165.24 -104.77
5347.68 -105.93
5536.57 -107.09
5732.14 -108.26
5934.60 -109.43
6144.23 -110.61
6361.25 -111.79
6585.94 -112.97
6818.57 -114.15
7059.41 -115.34
7308.77 -116.53
7566.93 -117.72
7834.20 -118.92
8110.92 -120.12
8397.41 -121.32
8694.03 -122.53
9001.12 -123.73
9319.05 -124.94
9648.22 -126.16
9989.01 -127.37
10341.84 -128.59
10707.13 -129.81
11085.33 -131.03
11476.88 -132.25
11882.27 -133.47
12301.97 -134.69
12736.50 -135.92
13186.38 -137.14
13652.14 -138.37
14134.36 -139.60
14633.61 -140.83
15150.50 -142.05
15685.64 -143.28
16239.69 -144.51
16813.31 -145.74
17407.18 -146.97
18022.04 -148.20
18658.61 -149.43
19317.66 -150.66
20000.00 -151.89
