# EMMA-Ref Custom Target Curve (SQ Competition Reference)
# Derived from EMMA SQ rules, acoustics physics and car-audio community experience
# Format: Frequency (Hz) Magnitude (dB)
20.00 9.00
20.71 9.00
21.44 9.00
22.20 9.00
22.98 9.00
23.79 9.00
24.63 9.00
25.50 9.00
26.40 9.00
27.33 9.00
28.30 9.00
29.30 9.00
30.33 9.00
31.41 9.00
32.52 9.00
33.66 9.00
34.85 9.00
36.08 8.92
37.36 8.83
38.68 8.74
40.04 8.64
41.46 8.54
42.92 8.44
44.44 8.34
46.01 8.23
47.63 8.11
49.32 8.00
51.06 7.88
52.86 7.75
54.73 7.63
56.66 7.50
58.66 7.36
60.74 7.22
62.88 7.08
65.10 6.93
67.40 6.77
69.78 6.62
72.25 6.45
74.80 6.29
77.44 6.11
80.18 5.94
83.01 5.76
85.94 5.57
88.98 5.38
92.12 5.18
95.37 4.98
98.74 4.77
102.23 4.56
105.84 4.34
109.58 4.12
113.45 3.89
117.46 3.66
121.60 3.42
125.90 3.18
130.35 2.93
134.95 2.68
139.72 2.43
144.65 2.18
149.76 1.92
155.05 1.66
160.53 1.40
166.20 1.15
172.07 0.89
178.15 0.65
184.44 0.42
190.95 0.21
197.70 0.03
204.68 -0.00
211.91 -0.00
219.40 -0.00
227.15 -0.00
235.17 -0.00
243.48 -0.00
252.08 -0.00
260.98 -0.00
270.20 -0.00
279.74 -0.00
289.62 -0.00
299.85 -0.00
310.45 -0.00
321.41 -0.00
332.76 -0.00
344.52 -0.00
356.69 -0.01
369.28 -0.01
382.33 -0.01
395.83 -0.01
409.81 -0.01
424.29 -0.02
439.28 -0.02
454.79 -0.02
470.86 -0.03
487.49 -0.03
504.71 -0.04
522.54 -0.05
540.99 -0.05
560.10 -0.06
579.88 -0.07
600.37 -0.09
621.57 -0.10
643.53 -0.12
666.26 -0.14
689.79 -0.16
714.16 -0.18
739.38 -0.20
765.50 -0.23
792.54 -0.26
820.53 -0.30
849.51 -0.33
879.52 -0.37
910.59 -0.42
942.75 -0.46
976.05 -0.51
1010.53 -0.57
1046.22 -0.65
1083.17 -0.74
1121.43 -0.83
1161.05 -0.92
1202.06 -1.01
1244.51 -1.10
1288.47 -1.20
1333.98 -1.30
1381.10 -1.40
1429.89 -1.49
1480.39 -1.59
1532.68 -1.69
1586.82 -1.79
1642.87 -1.88
1700.90 -1.97
1760.98 -2.06
1823.18 -2.15
1887.58 -2.23
1954.25 -2.30
2023.28 -2.38
2094.74 -2.44
2168.73 -2.50
2245.34 -2.55
2324.64 -2.59
2406.76 -2.63
2491.77 -2.66
2579.78 -2.68
2670.90 -2.70
2765.24 -2.70
2862.92 -2.70
2964.04 -2.70
3068.74 -2.68
3177.13 -2.66
3289.35 -2.64
3405.54 -2.61
3525.83 -2.58
3650.37 -2.54
3779.30 -2.50
3912.80 -2.45
4051.00 -2.41
4194.09 -2.36
4342.24 -2.31
4495.61 -2.26
4654.40 -2.21
4818.81 -2.16
4989.02 -2.12
5165.24 -2.07
5347.68 -2.03
5536.57 -1.99
5732.14 -1.95
5934.60 -1.92
6144.23 -1.89
6361.25 -1.86
6585.94 -1.83
6818.57 -1.81
7059.41 -1.79
7308.77 -1.77
7566.93 -1.76
7834.20 -1.75
8110.92 -1.75
8397.41 -1.74
8694.03 -1.74
9001.12 -1.74
9319.05 -1.75
9648.22 -1.76
9989.01 -1.76
10341.84 -1.77
10707.13 -1.79
11085.33 -1.80
11476.88 -1.82
11882.27 -1.83
12301.97 -1.85
12736.50 -1.87
13186.38 -1.89
13652.14 -1.91
14134.36 -1.93
14633.61 -1.95
15150.50 -1.97
15685.64 -2.00
16239.69 -2.02
16813.31 -2.04
17407.18 -2.07
18022.04 -2.09
18658.61 -2.11
19317.66 -2.14
20000.00 -2.16
